x [m], y [m], $\theta$ [rad], stamp, 
9.24573716317241, 4.2805607499753, -0.14068732720522556, 86602233000000, 
9.245737163200028, 4.2805607498957565, -0.1406873265625745, 86602267000000, 
9.245737171747429, 4.280560748637931, -0.14068732583806312, 86602301000000, 
9.245737184776328, 4.2805607467979385, -0.14068732508973497, 86602335000000, 
9.246880273610902, 4.280398928135688, -0.14068389221349042, 86602369000000, 
9.24916729350835, 4.28007523200292, -0.1406792181971588, 86602403000000, 
9.257173562554392, 4.27894176922468, -0.14068128677753441, 86602471000000, 
9.268218309946205, 4.277319843179379, -0.15725847894110104, 86602539000000, 
9.28872261531839, 4.273232013915343, -0.24360751678836778, 86602641000000, 
9.310344549825794, 4.2665644961003375, -0.35225282623312715, 86602743000000, 
9.331128009514174, 4.257605794242506, -0.46227442443571465, 86602845000000, 
9.350785007609005, 4.246363649989149, -0.5778487964112524, 86602947000000, 
9.363112918031229, 4.237644482304449, -0.6535716864108617, 86603015000000, 
9.3803367941573, 4.222962936583686, -0.759179710432532, 86603117000000, 
9.396004852307696, 4.20665429022955, -0.8533231748997997, 86603219000000, 
9.410168318127878, 4.189046393971583, -0.9352069718697996, 86603321000000, 
9.422970099811012, 4.1704580200113, -0.9996249431448105, 86603423000000, 
9.43453214425965, 4.151072072917623, -1.0695918282197334, 86603525000000, 
9.44512880411268, 4.13121054974571, -1.096906007888967, 86603627000000, 
9.451842190564506, 4.1178006619398975, -1.1148396142483874, 86603695000000, 
9.461492893225742, 4.0975508804040395, -1.138447622521202, 86603797000000, 
9.470708905895467, 4.077162378828909, -1.1550370797816192, 86603899000000, 
9.47970366648135, 4.056592339788362, -1.1634052567283066, 86604001000000, 
9.48851671089078, 4.035952076281971, -1.170474392330336, 86604103000000, 
9.49431462233284, 4.022149678129146, -1.1748749167595038, 86604171000000, 
9.502933651221298, 4.001415580306597, -1.1787911658537167, 86604273000000, 
9.511479914976603, 3.980657065966726, -1.181602600505963, 86604375000000, 
9.519959672063456, 3.959867127016171, -1.1883652876097908, 86604477000000, 
9.528345924689157, 3.939084604508406, -1.1754815355790573, 86604579000000, 
9.534122015479804, 3.9252988247250897, -1.1710866195946728, 86604647000000, 
9.542989139360717, 3.904711065647042, -1.1585332994611273, 86604749000000, 
9.549038075636261, 3.891044967262749, -1.1491668589583142, 86604817000000, 
9.558343787309147, 3.8706509816479047, -1.1351626848529504, 86604919000000, 
9.567925428555528, 3.8503849901093714, -1.1227626701343936, 86605021000000, 
9.577751163216016, 3.830236910323144, -1.1114312895391758, 86605123000000, 
9.587788899082646, 3.81019061513895, -1.1017178845166857, 86605225000000, 
9.598054177781, 3.790277096137413, -1.082031278726771, 86605327000000, 
9.608774646565927, 3.7706085437538945, -1.0606833221591427, 86605429000000, 
9.619925863701384, 3.751177443518309, -1.040705722393929, 86605531000000, 
9.627556195399835, 3.73833830637066, -1.0276345478467912, 86605599000000, 
9.639299513427824, 3.7192574208153943, -1.0099500695803183, 86605701000000, 
9.651362401525594, 3.700372434522065, -0.9942985693954866, 86605803000000, 
9.663698816702995, 3.681657544101968, -0.9810848502351949, 86605905000000, 
9.676267803885201, 3.6630922615826766, -0.9697133949299019, 86606007000000, 
9.68906208370702, 3.6446983303580645, -0.9511203264040837, 86606109000000, 
9.697826577086229, 3.632608457094503, -0.936650988158413, 86606177000000, 
9.711303209715165, 3.6147210517828277, -0.9137634952922169, 86606279000000, 
9.725137356902799, 3.597097651160769, -0.8952703938853438, 86606381000000, 
9.739301786078574, 3.5797367960797715, -0.8771539702755665, 86606483000000, 
9.753765001834438, 3.56261671851456, -0.8617177070815697, 86606585000000, 
9.768479109247702, 3.5457072246955694, -0.8481676730894392, 86606687000000, 
9.78345304029467, 3.529065500927115, -0.8196787390049107, 86606789000000, 
9.798911486956765, 3.5128607991521212, -0.7962655079476196, 86606891000000, 
9.814779172650228, 3.4970550799845666, -0.7731335894876304, 86606993000000, 
9.82554531410151, 3.486709618810027, -0.7574506644906851, 86607061000000, 
9.841977765018063, 3.4714849192110253, -0.7365839271081428, 86607163000000, 
9.858706656645735, 3.456579171888464, -0.718532589023173, 86607265000000, 
9.875690815046335, 3.4419788877550443, -0.6956185074265785, 86607367000000, 
9.893178669513242, 3.4280194587603456, -0.6621329864131749, 86607469000000, 
9.911061137309538, 3.414553856725008, -0.6328700088612271, 86607571000000, 
9.929278737073673, 3.4015338739195373, -0.6068479638285873, 86607673000000, 
9.947821683568153, 3.3889762842847975, -0.5827651909138958, 86607775000000, 
9.966658483127683, 3.376856156863414, -0.561259450207287, 86607877000000, 
9.985762609312346, 3.365219046991831, -0.5241678906340086, 86607979000000, 
10.005306657618132, 3.3543185996207128, -0.4913984243201587, 86608081000000, 
10.025219403157823, 3.344101497048327, -0.4595550182696747, 86608183000000, 
10.038660309898091, 3.3376224223924322, -0.4382496167054048, 86608251000000, 
10.059063304074803, 3.3284112258550826, -0.40926986264796367, 86608353000000, 
10.079709358495904, 3.3197830003291435, -0.3760045499562195, 86608455000000, 
10.100722038846053, 3.312164521465424, -0.3294864830436505, 86608557000000, 
10.122041086061353, 3.3054088100630903, -0.2887754509002171, 86608659000000, 
10.143596602670302, 3.299415685378824, -0.2524131792380219, 86608761000000, 
10.165352556720451, 3.294185608126345, -0.21783274203829167, 86608863000000, 
10.187264030102838, 3.2898046403005337, -0.16800307956137767, 86608965000000, 
10.209380166273895, 3.286558745843115, -0.12228923062517627, 86609067000000, 
10.231629345081556, 3.284347503422091, -0.07874397783807255, 86609169000000, 
10.253951058036911, 3.2830540177823937, -0.03709086220087134, 86609271000000, 
10.27631204119121, 3.282654672001575, 0.0010163430120610998, 86609373000000, 
10.291291438986818, 3.2828588568336325, 0.032159047576273664, 86609441000000, 
10.313360589010937, 3.284311781662246, 0.08796793915886524, 86609543000000, 
10.335556622272453, 3.28685187130442, 0.1376664474526529, 86609645000000, 
10.357643030388644, 3.290354060171387, 0.17915471305688055, 86609747000000, 
10.379576613645892, 3.2947501069465672, 0.2167577426306359, 86609849000000, 
10.401312258279168, 3.299988964623739, 0.2602949580050381, 86609951000000, 
10.42278150143893, 3.306225710414281, 0.3045543112655467, 86610053000000, 
10.44397054044628, 3.313382002536245, 0.34480128406879895, 86610155000000, 
10.464880078182263, 3.3213339484818034, 0.3821434197023809, 86610257000000, 
10.478651118627445, 3.3270561674911723, 0.40769382159314926, 86610325000000, 
10.498962194090106, 3.3363944576920495, 0.4526016029160735, 86610427000000, 
10.51886418164301, 3.346574924436973, 0.49280716817384895, 86610529000000, 
10.538404528894372, 3.3574808470039614, 0.5266982804002628, 86610631000000, 
10.557583708453246, 3.3690228217574547, 0.5567183115961327, 86610733000000, 
10.576423788768965, 3.3811193881574453, 0.5836636173630453, 86610835000000, 
10.594932250334693, 3.3937066923053436, 0.6135662361825899, 86610937000000, 
10.613038736838144, 3.4068680459062817, 0.6431356557146536, 86611039000000, 
10.630768121224055, 3.4205444603043396, 0.669525914938836, 86611141000000, 
10.648160959909829, 3.434654028689515, 0.6933895573276666, 86611243000000, 
10.665233533216243, 3.4491561204157803, 0.7146600984853305, 86611345000000, 
10.67644795747432, 3.4590168607378033, 0.7290033482125949, 86611413000000, 
10.692955596174574, 3.4741473317337035, 0.7538612935354861, 86611515000000, 
10.709115053772068, 3.489657920377765, 0.7759027004922316, 86611617000000, 
10.72497188968512, 3.505489337666965, 0.7940250773904546, 86611719000000, 
10.740554950023967, 3.521596310758503, 0.8097005119232911, 86611821000000, 
10.755894594573657, 3.537939168616237, 0.8235209512571355, 86611923000000, 
10.771005951099216, 3.5544866048843446, 0.8397227189887626, 86612025000000, 
10.78582771847221, 3.5712937149293413, 0.8560652224157824, 86612127000000, 
10.800385599682219, 3.588335605317115, 0.8704872778527947, 86612229000000, 
10.814718486364182, 3.6055713083103473, 0.8833966008780675, 86612331000000, 
10.828842804571268, 3.6229815448943574, 0.8947132354993351, 86612433000000, 
10.838155713307382, 3.634672759517547, 0.9015517508451389, 86612501000000, 
10.851989326938984, 3.652318148309738, 0.9111136829876909, 86612603000000, 
10.865597418884606, 3.670128780687231, 0.9246735109075689, 86612705000000, 
10.87898415700083, 3.6881105276386106, 0.9367570665802878, 86612807000000, 
10.892187307296565, 3.706234547012219, 0.9458933362052628, 86612909000000, 
10.905226331708011, 3.724478010841505, 0.9544358798089095, 86613011000000, 
10.918116571538661, 3.7428288256318916, 0.9619651007757981, 86613113000000, 
10.930882123250438, 3.761269430872628, 0.9681542127184384, 86613215000000, 
10.943546427931409, 3.7797823576172145, 0.9733416615253684, 86613317000000, 
10.956123231818632, 3.7983570237371667, 0.9777117613775502, 86613419000000, 
10.968626080387041, 3.816983211014459, 0.9813434612755754, 86613521000000, 
10.981067653428958, 3.8356514450442796, 0.9843756082292443, 86613623000000, 
10.993457703363632, 3.854354856865546, 0.9869293540466739, 86613725000000, 
11.001693129485133, 3.866840523256779, 0.9884532439344365, 86613793000000, 
11.014014203854561, 3.885590977385465, 0.990392680670605, 86613895000000, 
11.026301742126256, 3.904364205192776, 0.9920643302606392, 86613997000000, 
11.03856002411706, 3.9231570633408546, 0.9935263503743405, 86614099000000, 
11.050792930821938, 3.9419667866658696, 0.9947488810123061, 86614201000000, 
11.063003627166129, 3.960791049790647, 0.9958759543542783, 86614303000000, 
11.0751941601875, 3.979628615831837, 0.9969376135535263, 86614405000000, 
11.087365467290434, 3.9984788105279003, 0.9979363915363708, 86614507000000, 
11.09951843087601, 4.017340963654688, 0.9989012896959352, 86614609000000, 
11.110663751104799, 4.034941351337547, 1.0270211938575713, 86614711000000, 
11.119671664571328, 4.0496817504900795, 1.0244748226173204, 86614813000000, 
